900
3999.43349933624
648.556783676147
1
128
8
99.7445615958706
99.863980254195
99.805191186607
99.7903099074902
99.7875032518208
99.6574424805265
99.8154340722463
99.7541797954584
99.777415681365
99.7165513851325
99.6635150741836
99.5510493865057
99.4625055929559
99.4897164655045
99.7989054659143
99.7714539587493
99.7509776583143
99.6084996294906
99.7278248563925
99.9047745643067
99.686077683802
99.5722618396889
99.7804185374611
99.751846938602
99.6724893213014
99.5156522828899
99.7915527737603
99.9732932466753
99.9122328755138
99.7124848509258
99.7656531677521
99.7631681234806
99.9218663195183
99.920125626177
99.9248168504984
99.7085711293964
99.603068320062
99.615350626802
99.8700813740906
99.8595182616972
99.7421128343424
99.4747569771045
99.4693061302034
99.8361334441467
99.966784840686
99.6250258048286
99.727105364935
99.7680785263096
99.8172105526053
99.7187378569401
99.5494806259279
99.4523610551645
99.7298928538259
99.8629930365484
99.7192151281892
99.3484705811723
99.4547627997812
99.5241841442252
99.4090444779274
99.3803257747177
99.6553302518473
99.612633789601
99.4415246878066
99.2021947388563
99.2116100357018
99.3299726851784
99.6237736220633
99.4078874729325
99.1852033239078
99.1704073686361
99.2607364951717
99.1496672081291
99.0547120587466
98.7055019367662
98.6650487800722
98.6013054851982
98.6218667590789
98.5826716317668
98.3710492001876
98.0119813585375
97.8104343926161
97.2551235234385
97.0520532355432
96.8783173231359
96.2865370544069
95.699134217448
95.4533985552743
94.7692941602329
94.177986553343
93.4987285924061
92.6523027018639
91.7246080118695
90.9971406025698
90.2221503239402
89.5532857739514
88.7196888034313
87.7188788059824
86.7445951787169
86.1482774348373
85.6576236839791
85.0520787016591
84.2220838864395
83.5895621991629
82.7317946287427
82.0935184128616
81.6669337636939
81.0843755117992
80.2324005082622
79.5198026943845
79.1161201040149
78.9046591069644
78.1314633519347
77.4495529279613
76.7618925347687
76.1635743727976
75.5845401684002
75.0248958227944
74.2738106073682
73.6479758897614
72.8457923513302
72.3017589518534
71.7680403497624
71.1850822267018
70.325916543844
69.6074535413889
69.0171918795545
68.4661902373048
67.8188995944669
67.241067425301
66.4821966986796
65.7330923770941
65.3270353841766
64.736156584779
63.7724038131808
63.0587687690047
62.5387446685302
61.9402723609407
61.3013702263557
60.5709237982515
59.8865578639779
59.296378370997
58.5607477889404
58.0432471459853
57.4470024515808
56.724543595059
56.3878605600092
55.8458575573018
54.9186762994504
54.1185170884089
53.7752848175706
53.2737411056082
52.4658428147563
51.8132256276759
51.3325178588604
50.902890204948
50.3669999446311
49.8490634511127
49.3280939396267
48.6982913750289
48.1870606785292
47.7640980646753
47.2337691786372
46.7282833387373
46.4712382220085
46.1019786239862
45.8361556576356
45.6109733831219
45.5054929773064
45.1593869614699
44.5526211037525
44.3058346574864
44.3256941447706
44.2806408850205
44.2174783295972
44.0199629168873
43.8580233319239
43.7553724333414
43.6837614465576
43.5639127268369
43.5692041726669
43.5599923254353
43.4980670861742
43.5696575370667
43.6385541472139
43.6560408488163
43.6171369340492
43.5040431055834
43.4729060018231
43.4414696623534
43.4813558958268
43.6363133229048
43.6970801084421
43.5242658860829
43.3564137924317
43.3704621388573
43.5961376943038
43.6632827929023
43.5055002928863
43.4614552158809
43.5413602855166
43.6521704671049
43.8243345233715
43.8273622944756
43.8639921248275
44.0094227667151
44.1533072671677
44.299778437075
44.3525473940934
44.4867631784397
44.8670076287677
45.2418122872155
45.5974779088469
45.9761331632596
46.3683890817867
46.6525189012862
47.0682584921311
47.6090660038912
48.1655579813477
48.5351770908416
48.9709753483205
49.6405528855808
50.4602245353636
51.1434183815917
51.7374677365974
52.3388371515239
53.1231626962923
53.8702115087179
54.5777897379078
55.3887469253176
56.2344358632879
56.9291297207733
57.7077104187844
58.6065941048541
59.4470553741609
60.2605443757254
61.0472745549518
61.9788828858983
62.9315779960063
63.7688142833136
64.6080357742851
65.5275687542371
66.4084370844911
67.3187981026876
68.1940032373884
68.9804761284091
69.7739321974882
70.6091195751151
71.3688662513153
72.2599344486182
73.1359167419582
73.9283824861251
74.6208734648769
75.444304732236
76.2632739116597
77.0302249639408
77.6468340962579
78.3417633065132
79.0895034563879
79.8123410675814
80.3055211347543
80.9363060672367
81.6458356409389
82.3605079115609
82.9343862447092
83.4442386982181
84.013884530003
84.5856756647988
84.9903869871851
85.6000818903531
86.1907309743332
86.7582203869156
87.1523689351994
87.4862868912445
87.9207108621857
88.6029982729053
88.8701303577556
89.1495393718748
89.5364539416926
89.8343988213655
90.067501626427
90.4222338521459
90.6956389850533
91.0419868747723
91.2756488366264
91.6163797174098
91.8723987558617
92.1237594883625
92.2798250908146
92.5340872602878
92.7588222291225
93.1465723212902
93.451848551623
93.6061184091609
93.8342519692636
94.1310326753528
94.2530792029588
94.3965431862091
94.5154279006991
94.7252895294662
95.0055248158338
95.1523656313193
95.2317101603609
95.3821692184965
95.5954209939165
95.9039910767211
95.9638860226195
95.9634220688643
96.1656931338905
96.3968429805891
96.5316896163983
96.6103704973609
96.6841886092946
96.8851432760916
96.9418638806264
96.9755984382074
97.0796138678243
97.111200528413
97.2014928566517
97.4542805905476
97.4788446958896
97.46139520488
97.5238505042654
97.6351428071047
97.6804126926128
97.7514081026084
97.7724006416738
97.8456672675387
97.9210425140256
98.0452487216998
98.1020070018875
98.0887991419639
98.123691829854
98.2419375061762
98.2252079979155
98.2530719230261
98.286784607399
98.3128643363228
98.3719160100737
98.4828871876934
98.4918710807634
98.4723284128918
98.4792409127355
98.5373092119782
98.5878042737112
98.6484219035664
98.6146359996226
98.6787913785948
98.7773561121157
98.7570423129728
98.6738740409647
98.6898914009906
98.7443060152131
98.8484904789807
98.8615983646592
98.8560335261642
98.8283845444786
98.7939266253005
98.7728079376447
98.7813853972942
98.8690149839709
98.9248880927067
98.9090021303528
98.9206117973541
98.9487456110266
98.9978510498817
99.0238022773267
99.0781992043581
99.0459298833764
99.0461776703724
99.0878573657693
99.0426445985115
99.03898361215
99.1486371785526
99.1891065948034
99.2019484540011
99.1152170154483
99.1696466064143
99.2859558493446
99.3339718295923
99.2689612092564
99.1032822565086
99.1375019911168
99.3930718857236
99.4085910565471
99.4057580607063
99.3723884808333
99.2608382855488
99.1611957611567
99.1540550608614
99.3303722598416
99.2667890853025
99.0776373756618
99.1469739455191
99.2339712442623
99.1400940206782
99.0829528104185
99.2379648224084
99.2778846665903
99.0449114779954
99.0196723357477
99.2878651282407
99.3600506484134
99.2654785441512
99.0649623633512
98.959034071515
99.0985627085082
99.19744144032
99.1334606809127
98.9577520941547
98.8108375896855
98.9245532130203
99.0036545453747
98.8440842664604
98.8731067711342
99.0260348628676
98.9264250785097
98.7786747548932
98.7142071648252
98.6699139653595
98.6822713414434
98.6523080812031
98.5953616441365
98.5819602207799
98.4814316453717
98.4404424219445
98.482238343102
98.4661490903392
98.3905988430321
98.3988302275722
98.3228383566223
98.2253047836313
98.1781750199355
98.185471385656
98.1484721578899
98.1198493189887
98.1142393921664
98.051906084977
97.9963516970575
98.0885685012582
98.1499335686313
98.1921603700875
98.1180574825621
97.8601257567038
97.657403830911
97.6810002731526
97.8131096201426
97.7391283376575
97.6356256592201
97.5289606861403
97.4203120952894
97.463593809448
97.5112243220417
97.4284071750817
97.4894303043058
97.5363934347082
97.3828080066789
97.3125205678305
97.3068413811617
97.3479875334516
97.4675183635055
97.5624415187608
97.5653912817943
97.6397147713098
97.6722486303127
97.6858750312369
97.7230466272684
97.7370915709569
97.6853257341898
97.6076214343589
97.7902064672359
97.9443264775481
97.6956627901372
97.4667630790699
97.5893942995185
97.7724332813894
97.8430069200183
97.935760697175
97.9417210329879
97.9688234011439
98.0856306136179
98.203827517725
98.0882305182011
97.9467027279828
98.2037545822446
98.3180318890783
98.0021061233235
98.00468964421
98.3939797237009
98.5647113096467
98.5819987472145
98.6880952212369
98.8231924318298
98.6172218351893
98.3347814205531
98.7539544912618
98.8918959116637
98.5423150924025
98.3462595738474
97.9059544160794
97.3277477362222
97.0110192192561
96.9010788352591
96.7900157764603
96.6864674825448
96.5964206534909
96.4020967112578
96.0490888230581
95.90236355739
96.2140801599486
96.4653994771175
96.3313938297492
96.1619463355938
96.4583933157006
96.6780944269155
96.4385801921853
96.446970719447
96.7309346483631
96.8712352103161
97.0449515140089
97.2620430424769
97.1785920502684
97.0829555021878
97.5369415519883
97.9836953963117
98.286213494679
98.8332718251163
98.8146125819885
98.9342007071766
99.2760853003187
99.1179445212941
99.328531462346
99.4684697991768
99.2931707662388
99.5970831345147
99.6683579174934
99.1392690970336
98.9373520955123
99.0113837314098
98.9956544061927
99.2006718444023
99.3618498450316
99.3592767010283
99.7593521504912
100.110233493715
99.9914615369214
99.6621136181098
99.3291352208794
99.2905460937851
99.1101569613177
98.7583222824277
98.5427161543106
98.5205674715744
98.4057437994717
98.2703910936914
98.3201641863892
98.2773436702223
98.1862388744422
98.0780677503952
97.8892960499874
97.768172003707
97.8290733170544
97.8100662387234
97.7993497972241
97.8010875681933
97.7499602787699
97.7719475306248
97.7862780193782
97.7291184895214
97.6904907052118
97.6400155676098
97.6623203629603
97.6552128435751
97.5369753306506
97.539491192305
97.5215839522351
97.3892032680341
97.3398185033938
97.3669340580157
97.3393053291832
97.2361989820513
97.1536317352288
97.1201552454338
97.1202786176303
97.0562658157457
96.9309826081829
96.873104688707
96.828736170941
96.7543779328036
96.7039875759692
96.6572515619504
96.5736128843549
96.4452093145999
96.3365225883006
96.2104631116448
96.1056561770386
95.9946890073836
95.8897347996774
95.8141325227184
95.6273425266816
95.3604372230704
95.2135705965675
95.0839674972395
94.8613727276291
94.6084174560419
94.2604910256122
93.8572374903841
93.5261500172083
93.2276788739244
92.804198697699
92.2388701369394
91.6611461479992
91.1114829484062
90.5785677288515
89.7739825070999
88.8820572316132
87.9804771855204
87.1266783793801
86.234099138767
84.9568691385725
83.5500825759032
82.3887446166347
81.0896217704207
79.5092436229191
78.104455090862
76.6052445466424
75.0453746863151
73.5890231427663
71.9749834337672
70.4275386148517
69.1304861550016
67.8644895613164
66.8663690041297
65.8071948623536
64.8645205671193
64.426086155142
64.6815194971117
64.8327329526327
65.4828179592019
66.618666199744
67.9702311721505
69.8230132904156
71.3694985412318
72.9281527596102
74.5634978393664
76.0576763417975
77.4956784055165
78.7733746657722
79.8821061408265
80.8756596272465
81.6311967726521
82.5010330628644
83.3631409040415
83.9984965701482
84.4771975001873
84.6870088527785
85.4018370770411
86.0496503083743
86.1786341170824
86.3086586994714
86.514464004945
87.0523240031338
87.2974895266529
87.3647039475395
87.4821857283622
87.6380363469909
87.9225937560886
88.1207708394572
88.1307088627863
88.1830514595257
88.5465362439753
88.6460108383181
88.6116272035813
88.6969030328356
88.7442632088979
88.8452245352619
88.8893012021354
88.841070517021
88.843872546486
88.951033262737
88.9604702225043
88.9288667359889
88.9579980735753
89.0621598543528
89.1747752950203
89.1667747977065
89.2116373115148
89.2587821530984
89.2959288824505
89.4074553362406
89.4662932222035
89.4767060124229
89.4595736269963
89.5052469377659
89.595436350546
89.5490346221494
89.5263219204318
89.5921121878667
89.6160855153629
89.6129156971702
89.6257439692059
89.5938577196062
89.5994483846494
89.6373038335729
89.6048002709144
89.583371998808
89.596126379029
89.560849655313
89.507692159429
89.4921947808737
89.4482444795549
89.3596267064464
89.32815512711
89.4132642918791
89.4841590371
89.4991358362816
89.5420046911518
89.5637833373717
89.5367598176047
89.5308764548572
89.554643537636
89.5555439911206
89.5196435121999
89.4589884971303
89.4192991970708
89.3997966275332
89.3871578024346
89.3902616855703
89.3886012392019
89.4028380639883
89.4230815246336
89.4303213103893
89.4429513711077
89.4557989956483
89.456880101812
89.4478786569092
89.4177496770138
89.3780440790481
89.3587565958233
89.3826374332097
89.4264092821027
89.4705598788589
89.510205548985
89.5297479995947
89.5306392332594
89.5426642894189
89.5642915789814
89.5807971130047
89.5886711696174
89.5835115121346
89.5755575486549
89.567978170875
89.5572574896186
89.5605701989382
89.5705363861583
89.5701151771863
89.5750468353374
89.5756545214493
89.5674852291712
89.5911920863416
89.5860167599819
89.5557032239987
89.5573633942023
89.5609460926073
89.5063682930964
89.407287406094
89.3234695665744
89.2243821355828
89.1110415656678
89.0403641130431
89.0106607473173
88.977149883709
88.9169398161994
88.820198186118
88.6993668223619
88.6039641397115
88.5282425185948
88.4244521267092
88.2838024620686
88.172352136044
88.1124730646698
88.0452962760892
87.9537784863065
87.8749943877817
87.8293186397035
87.7906204663883
87.7887839256199
87.8137186313344
87.8442234371586
87.9224742946012
88.0604768287458
88.2080947422369
88.3075870619488
88.3669169316401
88.3822053667244
88.3519655352144
88.2943896330962
88.2457778232365
88.2096185109884
88.1963848734973
88.1675160562884
88.1148294375045
88.0586660691384
87.9841123544505
87.9049876747292
87.8368915533613
87.7509254274168
87.6339517790778
87.4977698970589
87.3756661259715
87.2518995898809
87.1209978951109
86.969288546419
86.7731130471912
86.5515633453574
86.3632499323351
86.1570482237048
85.864202482516
85.5316183340602
85.2154045347709
84.9325263966031
84.6699158810575
84.3756911689218
84.0848253447612
83.7664940515116
83.4129442883712
83.0574385422701
82.6809634814484
82.266863472181
81.8154104472368
81.3460614983339
80.8994365739148
80.436267768435
79.9101350841455
79.3632836430327
78.8176044764488
78.2392621318734
77.6338095892283
77.0708579655327
76.4909578303058
75.8377391965255
75.2117677622493
74.6015790134999
73.9529783481745
73.2606114379089
72.5485591766706
71.8520533234455
71.1712565157828
70.4596275052364
69.7333337468785
69.0185594073201
68.3243779369039
67.6391818069807
66.9554682597123
66.2365454735252
65.5442092025516
64.8460142654478
64.1595620936022
63.5036711743541
62.8108460600997
62.0965695100488
61.4231017779498
60.712269149826
60.0130860851751
59.3801239361676
58.7451909432512
58.0327982888887
57.3663413948444
56.7142685536976
56.0932819695117
55.4650085058569
54.8047336828521
54.1629722093584
53.5471154021658
52.9093823007302
52.3116989012843
51.7159162573628
51.1410774392643
50.5695037927562
49.9978976184221
49.4124280544797
48.8339928287717
48.2270257952256
47.6810167993024
47.2099500785415
46.7484436830456
46.1763109190246
45.6011903546926
45.1009605950447
44.6048372621689
44.0680942466801
43.5662939481526
43.1072711654292
42.6496216249332
42.1831351824663
41.7467034678917
41.2880467908911
40.8576120133917
40.4154215640418
39.9940312822026
39.5860115714986
